E (keV)	chYiel
0.000000	-nan
0.250000	67.280640
0.500000	55.954390
0.750000	49.292040
1.000000	45.972401
1.250000	44.214941
1.500000	43.068961
1.750000	42.152729
2.000000	41.332893
2.250000	40.567900
2.500000	39.846801
2.750000	39.167517
3.000000	38.529698
3.250000	37.932695
3.500000	37.375201
3.750000	36.855379
4.000000	36.371066
4.250000	35.919957
4.500000	35.499733
4.750000	35.108141
5.000000	34.743044
5.250000	34.402446
5.500000	34.084502
5.750000	33.787517
6.000000	33.509942
6.250000	33.250363
6.500000	33.007494
6.750000	32.780164
7.000000	32.567310
7.250000	32.367961
7.500000	32.181236
7.750000	32.006329
8.000000	31.842505
8.250000	31.689094
8.500000	31.545480
8.750000	31.411099
9.000000	31.285435
9.250000	31.168011
9.500000	31.058389
9.750000	30.956165
10.000000	30.860965
10.250000	30.772443
10.500000	30.690280
10.750000	30.614178
11.000000	30.543859
11.250000	30.479068
11.500000	30.419564
11.750000	30.365122
12.000000	30.315534
12.250000	30.270603
12.500000	30.230145
12.750000	30.193987
13.000000	30.161968
13.250000	30.133933
13.500000	30.109740
13.750000	30.089251
14.000000	30.072339
14.250000	30.058882
14.500000	30.048764
14.750000	30.041877
15.000000	30.038117
15.250000	30.037384
15.500000	30.039586
15.750000	30.044632
16.000000	30.052438
16.250000	30.062922
16.500000	30.076006
16.750000	30.091616
17.000000	30.109680
17.250000	30.130130
17.500000	30.152900
17.750000	30.177928
18.000000	30.205153
18.250000	30.234516
18.500000	30.265961
18.750000	30.299434
19.000000	30.334884
19.250000	30.372258
19.500000	30.411509
19.750000	30.452589
20.000000	30.495453
20.250000	30.540057
20.500000	30.586357
20.750000	30.634311
21.000000	30.683881
21.250000	30.735025
21.500000	30.787706
21.750000	30.841887
22.000000	30.897532
22.250000	30.954605
22.500000	31.013072
22.750000	31.072899
23.000000	31.134055
23.250000	31.196506
23.500000	31.260221
23.750000	31.325171
24.000000	31.391326
24.250000	31.458655
24.500000	31.527132
24.750000	31.596727
25.000000	31.667413
25.250000	31.739164
25.500000	31.811953
25.750000	31.885754
26.000000	31.960543
26.250000	32.036293
26.500000	32.112982
26.750000	32.190584
27.000000	32.269077
27.250000	32.348437
27.500000	32.428641
27.750000	32.509668
28.000000	32.591495
28.250000	32.674100
28.500000	32.757462
28.750000	32.841561
29.000000	32.926376
29.250000	33.011886
29.500000	33.098071
29.750000	33.184913
30.000000	33.272390
30.250000	33.360485
30.500000	33.449179
30.750000	33.538453
31.000000	33.628288
31.250000	33.718667
31.500000	33.809573
31.750000	33.900987
32.000000	33.992892
32.250000	34.085271
32.500000	34.178109
32.750000	34.271387
33.000000	34.365090
33.250000	34.459202
33.500000	34.553707
33.750000	34.648589
34.000000	34.743833
34.250000	34.839423
34.500000	34.935346
34.750000	35.031585
35.000000	35.128127
35.250000	35.224957
35.500000	35.322061
35.750000	35.419424
36.000000	35.517034
36.250000	35.614876
36.500000	35.712938
36.750000	35.811205
37.000000	35.909665
37.250000	36.008306
37.500000	36.107113
37.750000	36.206076
38.000000	36.305181
38.250000	36.404416
38.500000	36.503770
38.750000	36.603231
39.000000	36.702786
39.250000	36.802426
39.500000	36.902137
39.750000	37.001910
40.000000	37.101733
40.250000	37.201595
40.500000	37.301486
40.750000	37.401396
41.000000	37.501313
41.250000	37.601229
41.500000	37.701132
41.750000	37.801013
42.000000	37.900862
42.250000	38.000670
42.500000	38.100428
42.750000	38.200126
43.000000	38.299754
43.250000	38.399305
43.500000	38.498769
43.750000	38.598137
44.000000	38.697402
44.250000	38.796554
44.500000	38.895586
44.750000	38.994489
45.000000	39.093255
45.250000	39.191877
45.500000	39.290347
45.750000	39.388657
46.000000	39.486800
46.250000	39.584769
46.500000	39.682556
46.750000	39.780155
47.000000	39.877558
47.250000	39.974759
47.500000	40.071752
47.750000	40.168529
48.000000	40.265084
48.250000	40.361411
48.500000	40.457505
48.750000	40.553358
49.000000	40.648965
49.250000	40.744320
49.500000	40.839418
49.750000	40.934253
50.000000	41.028820
50.250000	41.123113
50.500000	41.217127
50.750000	41.310857
51.000000	41.404298
51.250000	41.497445
51.500000	41.590294
51.750000	41.682840
52.000000	41.775077
52.250000	41.867003
52.500000	41.958613
52.750000	42.049901
53.000000	42.140865
53.250000	42.231500
53.500000	42.321803
53.750000	42.411769
54.000000	42.501395
54.250000	42.590677
54.500000	42.679611
54.750000	42.768195
55.000000	42.856425
55.250000	42.944297
55.500000	43.031809
55.750000	43.118958
56.000000	43.205740
56.250000	43.292153
56.500000	43.378194
56.750000	43.463859
57.000000	43.549148
57.250000	43.634057
57.500000	43.718583
57.750000	43.802724
58.000000	43.886479
58.250000	43.969844
58.500000	44.052818
58.750000	44.135399
59.000000	44.217584
59.250000	44.299373
59.500000	44.380762
59.750000	44.461751
60.000000	44.542337
60.250000	44.622519
60.500000	44.702296
60.750000	44.781666
61.000000	44.860627
61.250000	44.939179
61.500000	45.017321
61.750000	45.095050
62.000000	45.172366
62.250000	45.249268
62.500000	45.325755
62.750000	45.401826
63.000000	45.477479
63.250000	45.552716
63.500000	45.627534
63.750000	45.701932
64.000000	45.775911
64.250000	45.849470
64.500000	45.922608
64.750000	45.995325
65.000000	46.067620
65.250000	46.139494
65.500000	46.210945
65.750000	46.281973
66.000000	46.352579
66.250000	46.422762
66.500000	46.492523
66.750000	46.561860
67.000000	46.630775
67.250000	46.699266
67.500000	46.767335
67.750000	46.834982
68.000000	46.902206
68.250000	46.969008
68.500000	47.035388
68.750000	47.101346
69.000000	47.166884
69.250000	47.232000
69.500000	47.296696
69.750000	47.360973
70.000000	47.424830
70.250000	47.488268
70.500000	47.551288
70.750000	47.613890
71.000000	47.676075
71.250000	47.737845
71.500000	47.799198
71.750000	47.860137
72.000000	47.920663
72.250000	47.980774
72.500000	48.040474
72.750000	48.099763
73.000000	48.158640
73.250000	48.217109
73.500000	48.275169
73.750000	48.332821
74.000000	48.390067
74.250000	48.446907
74.500000	48.503343
74.750000	48.559376
75.000000	48.615007
75.250000	48.670236
75.500000	48.725066
75.750000	48.779497
76.000000	48.833531
76.250000	48.887169
76.500000	48.940412
76.750000	48.993261
77.000000	49.045718
77.250000	49.097784
77.500000	49.149460
77.750000	49.200748
78.000000	49.251649
78.250000	49.302165
78.500000	49.352296
78.750000	49.402045
79.000000	49.451413
79.250000	49.500401
79.500000	49.549010
79.750000	49.597243
80.000000	49.645101
80.250000	49.692585
80.500000	49.739696
80.750000	49.786437
81.000000	49.832809
81.250000	49.878813
81.500000	49.924451
81.750000	49.969724
82.000000	50.014635
82.250000	50.059185
82.500000	50.103375
82.750000	50.147207
83.000000	50.190683
83.250000	50.233803
83.500000	50.276571
83.750000	50.318988
84.000000	50.361055
84.250000	50.402774
84.500000	50.444146
84.750000	50.485174
85.000000	50.525859
85.250000	50.566202
85.500000	50.606206
85.750000	50.645873
86.000000	50.685203
86.250000	50.724198
86.500000	50.762861
86.750000	50.801193
87.000000	50.839196
87.250000	50.876871
87.500000	50.914220
87.750000	50.951246
88.000000	50.987949
88.250000	51.024332
88.500000	51.060396
88.750000	51.096142
89.000000	51.131574
89.250000	51.166692
89.500000	51.201498
89.750000	51.235994
90.000000	51.270182
90.250000	51.304064
90.500000	51.337641
90.750000	51.370914
91.000000	51.403887
91.250000	51.436560
91.500000	51.468935
91.750000	51.501014
92.000000	51.532799
92.250000	51.564292
92.500000	51.595494
92.750000	51.626407
93.000000	51.657032
93.250000	51.687372
93.500000	51.717429
93.750000	51.747203
94.000000	51.776697
94.250000	51.805913
94.500000	51.834852
94.750000	51.863515
95.000000	51.891906
95.250000	51.920024
95.500000	51.947873
95.750000	51.975453
96.000000	52.002768
96.250000	52.029817
96.500000	52.056603
96.750000	52.083128
97.000000	52.109393
97.250000	52.135400
97.500000	52.161151
97.750000	52.186647
98.000000	52.211890
98.250000	52.236882
98.500000	52.261624
98.750000	52.286118
99.000000	52.310366
99.250000	52.334370
99.500000	52.358130
99.750000	52.381649
100.000000	52.404928
100.250000	52.427970
100.500000	52.450774
100.750000	52.473344
101.000000	52.495681
101.250000	52.517786
101.500000	52.539661
101.750000	52.561307
102.000000	52.582727
102.250000	52.603921
102.500000	52.624892
102.750000	52.645640
103.000000	52.666168
103.250000	52.686477
103.500000	52.706569
103.750000	52.726444
104.000000	52.746106
104.250000	52.765554
104.500000	52.784791
104.750000	52.803819
105.000000	52.822638
105.250000	52.841250
105.500000	52.859657
105.750000	52.877860
106.000000	52.895861
106.250000	52.913661
106.500000	52.931262
106.750000	52.948665
107.000000	52.965871
107.250000	52.982883
107.500000	52.999700
107.750000	53.016326
108.000000	53.032761
108.250000	53.049007
108.500000	53.065065
108.750000	53.080937
109.000000	53.096623
109.250000	53.112126
109.500000	53.127447
109.750000	53.142586
110.000000	53.157547
110.250000	53.172329
110.500000	53.186934
110.750000	53.201364
111.000000	53.215619
111.250000	53.229702
111.500000	53.243614
111.750000	53.257355
112.000000	53.270928
112.250000	53.284333
112.500000	53.297571
112.750000	53.310645
113.000000	53.323556
113.250000	53.336303
113.500000	53.348890
113.750000	53.361317
114.000000	53.373585
114.250000	53.385696
114.500000	53.397651
114.750000	53.409451
115.000000	53.421098
115.250000	53.432592
115.500000	53.443935
115.750000	53.455127
116.000000	53.466171
116.250000	53.477068
116.500000	53.487817
116.750000	53.498422
117.000000	53.508882
117.250000	53.519200
117.500000	53.529376
117.750000	53.539411
118.000000	53.549306
118.250000	53.559063
118.500000	53.568683
118.750000	53.578167
119.000000	53.587516
119.250000	53.596730
119.500000	53.605812
119.750000	53.614762
120.000000	53.623582
120.250000	53.632272
120.500000	53.640833
120.750000	53.649267
121.000000	53.657574
121.250000	53.665756
121.500000	53.673814
121.750000	53.681748
122.000000	53.689560
122.250000	53.697251
122.500000	53.704822
122.750000	53.712273
123.000000	53.719606
123.250000	53.726822
123.500000	53.733922
123.750000	53.740906
124.000000	53.747776
124.250000	53.754533
124.500000	53.761177
124.750000	53.767710
125.000000	53.774132
125.250000	53.780445
125.500000	53.786649
125.750000	53.792745
126.000000	53.798735
126.250000	53.804618
126.500000	53.810397
126.750000	53.816072
127.000000	53.821643
127.250000	53.827113
127.500000	53.832481
127.750000	53.837748
128.000000	53.842916
128.250000	53.847985
128.500000	53.852956
128.750000	53.857829
129.000000	53.862607
129.250000	53.867289
129.500000	53.871877
129.750000	53.876371
130.000000	53.880772
130.250000	53.885081
130.500000	53.889299
130.750000	53.893426
131.000000	53.897463
131.250000	53.901412
131.500000	53.905272
131.750000	53.909045
132.000000	53.912732
132.250000	53.916333
132.500000	53.919848
132.750000	53.923280
133.000000	53.926628
133.250000	53.929893
133.500000	53.933076
133.750000	53.936178
134.000000	53.939199
134.250000	53.942140
134.500000	53.945003
134.750000	53.947786
135.000000	53.950493
135.250000	53.953122
135.500000	53.955675
135.750000	53.958152
136.000000	53.960554
136.250000	53.962882
136.500000	53.965137
136.750000	53.967318
137.000000	53.969428
137.250000	53.971465
137.500000	53.973432
137.750000	53.975329
138.000000	53.977156
138.250000	53.978914
138.500000	53.980604
138.750000	53.982226
139.000000	53.983781
139.250000	53.985269
139.500000	53.986692
139.750000	53.988049
140.000000	53.989342
140.250000	53.990571
140.500000	53.991736
140.750000	53.992839
141.000000	53.993879
141.250000	53.994858
141.500000	53.995775
141.750000	53.996633
142.000000	53.997430
142.250000	53.998168
142.500000	53.998847
142.750000	53.999468
143.000000	54.000031
143.250000	54.000537
143.500000	54.000986
143.750000	54.001380
144.000000	54.001718
144.250000	54.002001
144.500000	54.002229
144.750000	54.002404
145.000000	54.002525
145.250000	54.002593
145.500000	54.002609
145.750000	54.002573
146.000000	54.002486
146.250000	54.002347
146.500000	54.002159
146.750000	54.001920
147.000000	54.001633
147.250000	54.001296
147.500000	54.000911
147.750000	54.000477
148.000000	53.999997
148.250000	53.999469
148.500000	53.998895
148.750000	53.998275
149.000000	53.997609
149.250000	53.996898
149.500000	53.996142
149.750000	53.995342
150.000000	53.994498
150.250000	53.993610
150.500000	53.992680
150.750000	53.991707
151.000000	53.990692
151.250000	53.989636
151.500000	53.988538
151.750000	53.987399
152.000000	53.986220
152.250000	53.985001
152.500000	53.983742
152.750000	53.982444
153.000000	53.981107
153.250000	53.979732
153.500000	53.978319
153.750000	53.976868
154.000000	53.975380
154.250000	53.973855
154.500000	53.972293
154.750000	53.970696
155.000000	53.969063
155.250000	53.967394
155.500000	53.965690
155.750000	53.963952
156.000000	53.962180
156.250000	53.960374
156.500000	53.958534
156.750000	53.956661
157.000000	53.954755
157.250000	53.952817
157.500000	53.950847
157.750000	53.948844
158.000000	53.946811
158.250000	53.944746
158.500000	53.942651
158.750000	53.940525
159.000000	53.938369
159.250000	53.936183
159.500000	53.933968
159.750000	53.931723
160.000000	53.929450
160.250000	53.927148
160.500000	53.924818
160.750000	53.922460
161.000000	53.920075
161.250000	53.917662
161.500000	53.915223
161.750000	53.912756
162.000000	53.910264
162.250000	53.907745
162.500000	53.905200
162.750000	53.902630
163.000000	53.900035
163.250000	53.897414
163.500000	53.894769
163.750000	53.892100
164.000000	53.889407
164.250000	53.886690
164.500000	53.883949
164.750000	53.881185
165.000000	53.878398
165.250000	53.875588
165.500000	53.872756
165.750000	53.869901
166.000000	53.867025
166.250000	53.864127
166.500000	53.861207
166.750000	53.858267
167.000000	53.855305
167.250000	53.852322
167.500000	53.849320
167.750000	53.846297
168.000000	53.843254
168.250000	53.840191
168.500000	53.837109
168.750000	53.834007
169.000000	53.830887
169.250000	53.827747
169.500000	53.824589
169.750000	53.821413
170.000000	53.818219
170.250000	53.815007
170.500000	53.811777
170.750000	53.808530
171.000000	53.805265
171.250000	53.801984
171.500000	53.798686
171.750000	53.795371
172.000000	53.792040
172.250000	53.788692
172.500000	53.785329
172.750000	53.781950
173.000000	53.778555
173.250000	53.775145
173.500000	53.771720
173.750000	53.768280
174.000000	53.764825
174.250000	53.761356
174.500000	53.757872
174.750000	53.754374
175.000000	53.750862
175.250000	53.747337
175.500000	53.743797
175.750000	53.740245
176.000000	53.736679
176.250000	53.733100
176.500000	53.729508
176.750000	53.725903
177.000000	53.722286
177.250000	53.718657
177.500000	53.715015
177.750000	53.711361
178.000000	53.707696
178.250000	53.704019
178.500000	53.700330
178.750000	53.696630
179.000000	53.692919
179.250000	53.689196
179.500000	53.685463
179.750000	53.681720
180.000000	53.677965
180.250000	53.674201
180.500000	53.670426
180.750000	53.666641
181.000000	53.662846
181.250000	53.659042
181.500000	53.655227
181.750000	53.651404
182.000000	53.647571
182.250000	53.643729
182.500000	53.639877
182.750000	53.636017
183.000000	53.632149
183.250000	53.628271
183.500000	53.624385
183.750000	53.620491
184.000000	53.616589
184.250000	53.612678
184.500000	53.608760
184.750000	53.604834
185.000000	53.600900
185.250000	53.596959
185.500000	53.593011
185.750000	53.589055
186.000000	53.585092
186.250000	53.581122
186.500000	53.577145
186.750000	53.573161
187.000000	53.569171
187.250000	53.565174
187.500000	53.561171
187.750000	53.557162
188.000000	53.553146
188.250000	53.549125
188.500000	53.545097
188.750000	53.541064
189.000000	53.537025
189.250000	53.532980
189.500000	53.528930
189.750000	53.524875
190.000000	53.520814
190.250000	53.516748
190.500000	53.512678
190.750000	53.508602
191.000000	53.504521
191.250000	53.500436
191.500000	53.496346
191.750000	53.492252
192.000000	53.488153
192.250000	53.484050
192.500000	53.479943
192.750000	53.475832
193.000000	53.471717
193.250000	53.467597
193.500000	53.463474
193.750000	53.459348
194.000000	53.455217
194.250000	53.451084
194.500000	53.446946
194.750000	53.442806
195.000000	53.438662
195.250000	53.434515
195.500000	53.430365
195.750000	53.426212
196.000000	53.422056
196.250000	53.417897
196.500000	53.413736
196.750000	53.409572
197.000000	53.405405
197.250000	53.401236
197.500000	53.397064
197.750000	53.392891
198.000000	53.388715
198.250000	53.384537
198.500000	53.380356
198.750000	53.376174
199.000000	53.371990
199.250000	53.367804
199.500000	53.363617
199.750000	53.359427
200.000000	53.355237
200.250000	53.351044
200.500000	53.346850
200.750000	53.342655
201.000000	53.338459
201.250000	53.334261
201.500000	53.330062
201.750000	53.325862
202.000000	53.321661
202.250000	53.317459
202.500000	53.313256
202.750000	53.309052
203.000000	53.304848
203.250000	53.300643
203.500000	53.296437
203.750000	53.292231
204.000000	53.288024
204.250000	53.283817
204.500000	53.279609
204.750000	53.275402
205.000000	53.271194
205.250000	53.266985
205.500000	53.262777
205.750000	53.258569
206.000000	53.254360
206.250000	53.250152
206.500000	53.245944
206.750000	53.241736
207.000000	53.237528
207.250000	53.233320
207.500000	53.229113
207.750000	53.224906
208.000000	53.220700
208.250000	53.216494
208.500000	53.212289
208.750000	53.208084
209.000000	53.203881
209.250000	53.199677
209.500000	53.195475
209.750000	53.191273
210.000000	53.187073
210.250000	53.182873
210.500000	53.178674
210.750000	53.174476
211.000000	53.170279
211.250000	53.166084
211.500000	53.161889
211.750000	53.157696
212.000000	53.153504
212.250000	53.149313
212.500000	53.145124
212.750000	53.140936
213.000000	53.136750
213.250000	53.132565
213.500000	53.128381
213.750000	53.124199
214.000000	53.120019
214.250000	53.115840
214.500000	53.111663
214.750000	53.107488
215.000000	53.103315
215.250000	53.099143
215.500000	53.094974
215.750000	53.090806
216.000000	53.086640
216.250000	53.082476
216.500000	53.078314
216.750000	53.074154
217.000000	53.069996
217.250000	53.065841
217.500000	53.061687
217.750000	53.057536
218.000000	53.053387
218.250000	53.049240
218.500000	53.045096
218.750000	53.040954
219.000000	53.036814
219.250000	53.032677
219.500000	53.028542
219.750000	53.024409
220.000000	53.020280
220.250000	53.016152
220.500000	53.012027
220.750000	53.007905
221.000000	53.003786
221.250000	52.999669
221.500000	52.995555
221.750000	52.991443
222.000000	52.987335
222.250000	52.983229
222.500000	52.979126
222.750000	52.975025
223.000000	52.970928
223.250000	52.966833
223.500000	52.962742
223.750000	52.958653
224.000000	52.954568
224.250000	52.950485
224.500000	52.946406
224.750000	52.942329
225.000000	52.938256
225.250000	52.934186
225.500000	52.930118
225.750000	52.926054
226.000000	52.921994
226.250000	52.917936
226.500000	52.913882
226.750000	52.909831
227.000000	52.905783
227.250000	52.901739
227.500000	52.897697
227.750000	52.893660
228.000000	52.889625
228.250000	52.885594
228.500000	52.881567
228.750000	52.877543
229.000000	52.873522
229.250000	52.869505
229.500000	52.865491
229.750000	52.861481
230.000000	52.857474
230.250000	52.853471
230.500000	52.849472
230.750000	52.845476
231.000000	52.841484
231.250000	52.837495
231.500000	52.833511
231.750000	52.829529
232.000000	52.825552
232.250000	52.821578
232.500000	52.817608
232.750000	52.813642
233.000000	52.809679
233.250000	52.805721
233.500000	52.801766
233.750000	52.797815
234.000000	52.793867
234.250000	52.789924
234.500000	52.785984
234.750000	52.782049
235.000000	52.778117
235.250000	52.774189
235.500000	52.770265
235.750000	52.766346
236.000000	52.762430
236.250000	52.758518
236.500000	52.754610
236.750000	52.750706
237.000000	52.746806
237.250000	52.742910
237.500000	52.739018
237.750000	52.735130
238.000000	52.731246
238.250000	52.727367
238.500000	52.723491
238.750000	52.719620
239.000000	52.715752
239.250000	52.711889
239.500000	52.708030
239.750000	52.704175
240.000000	52.700325
240.250000	52.696478
240.500000	52.692636
240.750000	52.688798
241.000000	52.684964
241.250000	52.681134
241.500000	52.677308
241.750000	52.673487
242.000000	52.669670
242.250000	52.665858
242.500000	52.662049
242.750000	52.658245
